Angle(Deg)	I1	I2	Itotal
0.000000	8.328486e+006	8.328486e+006	1.665697e+007
0.000500	8.328479e+006	8.328479e+006	1.665696e+007
0.001000	8.328461e+006	8.328461e+006	1.665692e+007
0.001500	8.328429e+006	8.328429e+006	1.665686e+007
0.002000	8.328386e+006	8.328386e+006	1.665677e+007
0.002500	8.328330e+006	8.328330e+006	1.665666e+007
0.003000	8.328261e+006	8.328261e+006	1.665652e+007
0.003500	8.328180e+006	8.328180e+006	1.665636e+007
0.004000	8.328087e+006	8.328087e+006	1.665617e+007
0.004500	8.327981e+006	8.327981e+006	1.665596e+007
0.005001	8.327862e+006	8.327862e+006	1.665572e+007
0.005501	8.327731e+006	8.327731e+006	1.665546e+007
0.006001	8.327588e+006	8.327588e+006	1.665518e+007
0.006501	8.327432e+006	8.327432e+006	1.665486e+007
0.007001	8.327264e+006	8.327264e+006	1.665453e+007
0.007501	8.327083e+006	8.327083e+006	1.665417e+007
0.008001	8.326890e+006	8.326890e+006	1.665378e+007
0.008501	8.326684e+006	8.326684e+006	1.665337e+007
0.009001	8.326466e+006	8.326466e+006	1.665293e+007
0.009501	8.326236e+006	8.326235e+006	1.665247e+007
0.010001	8.325993e+006	8.325992e+006	1.665199e+007
0.010501	8.325737e+006	8.325737e+006	1.665147e+007
0.011001	8.325469e+006	8.325469e+006	1.665094e+007
0.011501	8.325189e+006	8.325189e+006	1.665038e+007
0.012001	8.324896e+006	8.324896e+006	1.664979e+007
0.012501	8.324591e+006	8.324590e+006	1.664918e+007
0.013001	8.324273e+006	8.324273e+006	1.664855e+007
0.013501	8.323943e+006	8.323942e+006	1.664789e+007
0.014001	8.323600e+006	8.323600e+006	1.664720e+007
0.014501	8.323245e+006	8.323245e+006	1.664649e+007
0.015002	8.322878e+006	8.322877e+006	1.664575e+007
0.015502	8.322498e+006	8.322497e+006	1.664499e+007
0.016002	8.322105e+006	8.322105e+006	1.664421e+007
0.016502	8.321700e+006	8.321700e+006	1.664340e+007
0.017002	8.321283e+006	8.321282e+006	1.664257e+007
0.017502	8.320853e+006	8.320852e+006	1.664171e+007
0.018002	8.320411e+006	8.320410e+006	1.664082e+007
0.018502	8.319957e+006	8.319956e+006	1.663991e+007
0.019002	8.319490e+006	8.319489e+006	1.663898e+007
0.019502	8.319010e+006	8.319009e+006	1.663802e+007
0.020002	8.318518e+006	8.318517e+006	1.663704e+007
0.020502	8.318014e+006	8.318013e+006	1.663603e+007
0.021002	8.317497e+006	8.317496e+006	1.663499e+007
0.021502	8.316968e+006	8.316967e+006	1.663393e+007
0.022002	8.316426e+006	8.316425e+006	1.663285e+007
0.022502	8.315872e+006	8.315871e+006	1.663174e+007
0.023002	8.315306e+006	8.315304e+006	1.663061e+007
0.023502	8.314727e+006	8.314725e+006	1.662945e+007
0.024002	8.314136e+006	8.314134e+006	1.662827e+007
0.024502	8.313532e+006	8.313530e+006	1.662706e+007
0.025003	8.312916e+006	8.312914e+006	1.662583e+007
0.025503	8.312288e+006	8.312286e+006	1.662457e+007
0.026003	8.311647e+006	8.311645e+006	1.662329e+007
0.026503	8.310993e+006	8.310991e+006	1.662198e+007
0.027003	8.310328e+006	8.310326e+006	1.662065e+007
0.027503	8.309650e+006	8.309647e+006	1.661930e+007
0.028003	8.308959e+006	8.308957e+006	1.661792e+007
0.028503	8.308256e+006	8.308254e+006	1.661651e+007
0.029003	8.307541e+006	8.307539e+006	1.661508e+007
0.029503	8.306813e+006	8.306811e+006	1.661362e+007
0.030003	8.306073e+006	8.306071e+006	1.661214e+007
0.030503	8.305321e+006	8.305318e+006	1.661064e+007
0.031003	8.304556e+006	8.304553e+006	1.660911e+007
0.031503	8.303779e+006	8.303776e+006	1.660756e+007
0.032003	8.302990e+006	8.302987e+006	1.660598e+007
0.032503	8.302188e+006	8.302185e+006	1.660437e+007
0.033003	8.301373e+006	8.301370e+006	1.660274e+007
0.033503	8.300547e+006	8.300544e+006	1.660109e+007
0.034003	8.299708e+006	8.299705e+006	1.659941e+007
0.034503	8.298857e+006	8.298853e+006	1.659771e+007
0.035004	8.297993e+006	8.297989e+006	1.659598e+007
0.035504	8.297117e+006	8.297113e+006	1.659423e+007
0.036004	8.296228e+006	8.296225e+006	1.659245e+007
0.036504	8.295328e+006	8.295324e+006	1.659065e+007
0.037004	8.294415e+006	8.294411e+006	1.658883e+007
0.037504	8.293489e+006	8.293485e+006	1.658697e+007
0.038004	8.292552e+006	8.292547e+006	1.658510e+007
0.038504	8.291602e+006	8.291597e+006	1.658320e+007
0.039004	8.290639e+006	8.290635e+006	1.658127e+007
0.039504	8.289665e+006	8.289660e+006	1.657932e+007
0.040004	8.288677e+006	8.288673e+006	1.657735e+007
0.040504	8.287678e+006	8.287673e+006	1.657535e+007
0.041004	8.286667e+006	8.286662e+006	1.657333e+007
0.041504	8.285643e+006	8.285638e+006	1.657128e+007
0.042004	8.284606e+006	8.284601e+006	1.656921e+007
0.042504	8.283558e+006	8.283553e+006	1.656711e+007
0.043004	8.282497e+006	8.282492e+006	1.656499e+007
0.043504	8.281424e+006	8.281418e+006	1.656284e+007
0.044004	8.280339e+006	8.280333e+006	1.656067e+007
0.044504	8.279241e+006	8.279235e+006	1.655848e+007
0.045005	8.278131e+006	8.278125e+006	1.655626e+007
0.045505	8.277009e+006	8.277003e+006	1.655401e+007
0.046005	8.275874e+006	8.275868e+006	1.655174e+007
0.046505	8.274727e+006	8.274721e+006	1.654945e+007
0.047005	8.273568e+006	8.273562e+006	1.654713e+007
0.047505	8.272397e+006	8.272391e+006	1.654479e+007
0.048005	8.271214e+006	8.271207e+006	1.654242e+007
0.048505	8.270018e+006	8.270011e+006	1.654003e+007
0.049005	8.268810e+006	8.268803e+006	1.653761e+007
0.049505	8.267590e+006	8.267583e+006	1.653517e+007
0.050005	8.266357e+006	8.266350e+006	1.653271e+007
0.050505	8.265112e+006	8.265105e+006	1.653022e+007
0.051005	8.263856e+006	8.263848e+006	1.652770e+007
0.051505	8.262586e+006	8.262579e+006	1.652517e+007
0.052005	8.261305e+006	8.261297e+006	1.652260e+007
0.052505	8.260011e+006	8.260004e+006	1.652002e+007
0.053005	8.258706e+006	8.258698e+006	1.651740e+007
0.053505	8.257388e+006	8.257380e+006	1.651477e+007
0.054005	8.256058e+006	8.256049e+006	1.651211e+007
0.054505	8.254715e+006	8.254707e+006	1.650942e+007
0.055006	8.253361e+006	8.253352e+006	1.650671e+007
0.055506	8.251994e+006	8.251985e+006	1.650398e+007
0.056006	8.250615e+006	8.250606e+006	1.650122e+007
0.056506	8.249224e+006	8.249215e+006	1.649844e+007
0.057006	8.247821e+006	8.247812e+006	1.649563e+007
0.057506	8.246406e+006	8.246396e+006	1.649280e+007
0.058006	8.244978e+006	8.244968e+006	1.648995e+007
0.058506	8.243538e+006	8.243529e+006	1.648707e+007
0.059006	8.242087e+006	8.242077e+006	1.648416e+007
0.059506	8.240623e+006	8.240613e+006	1.648124e+007
0.060006	8.239147e+006	8.239136e+006	1.647828e+007
0.060506	8.237659e+006	8.237648e+006	1.647531e+007
0.061006	8.236158e+006	8.236148e+006	1.647231e+007
0.061506	8.234646e+006	8.234635e+006	1.646928e+007
0.062006	8.233121e+006	8.233110e+006	1.646623e+007
0.062506	8.231585e+006	8.231574e+006	1.646316e+007
0.063006	8.230036e+006	8.230025e+006	1.646006e+007
0.063506	8.228475e+006	8.228464e+006	1.645694e+007
0.064006	8.226902e+006	8.226891e+006	1.645379e+007
0.064506	8.225317e+006	8.225305e+006	1.645062e+007
0.065007	8.223720e+006	8.223708e+006	1.644743e+007
0.065507	8.222111e+006	8.222099e+006	1.644421e+007
0.066007	8.220490e+006	8.220478e+006	1.644097e+007
0.066507	8.218857e+006	8.218844e+006	1.643770e+007
0.067007	8.217212e+006	8.217199e+006	1.643441e+007
0.067507	8.215554e+006	8.215541e+006	1.643110e+007
0.068007	8.213885e+006	8.213872e+006	1.642776e+007
0.068507	8.212204e+006	8.212190e+006	1.642439e+007
0.069007	8.210510e+006	8.210497e+006	1.642101e+007
0.069507	8.208805e+006	8.208791e+006	1.641760e+007
0.070007	8.207088e+006	8.207074e+006	1.641416e+007
0.070507	8.205358e+006	8.205344e+006	1.641070e+007
0.071007	8.203617e+006	8.203603e+006	1.640722e+007
0.071507	8.201864e+006	8.201849e+006	1.640371e+007
0.072007	8.200098e+006	8.200084e+006	1.640018e+007
0.072507	8.198321e+006	8.198306e+006	1.639663e+007
0.073007	8.196532e+006	8.196517e+006	1.639305e+007
0.073507	8.194730e+006	8.194715e+006	1.638945e+007
0.074007	8.192917e+006	8.192902e+006	1.638582e+007
0.074507	8.191092e+006	8.191076e+006	1.638217e+007
0.075008	8.189255e+006	8.189239e+006	1.637849e+007
0.075508	8.187406e+006	8.187390e+006	1.637480e+007
0.076008	8.185545e+006	8.185529e+006	1.637107e+007
0.076508	8.183672e+006	8.183656e+006	1.636733e+007
0.077008	8.181788e+006	8.181771e+006	1.636356e+007
0.077508	8.179891e+006	8.179874e+006	1.635976e+007
0.078008	8.177982e+006	8.177965e+006	1.635595e+007
0.078508	8.176062e+006	8.176044e+006	1.635211e+007
0.079008	8.174130e+006	8.174112e+006	1.634824e+007
0.079508	8.172185e+006	8.172167e+006	1.634435e+007
0.080008	8.170229e+006	8.170211e+006	1.634044e+007
0.080508	8.168261e+006	8.168243e+006	1.633650e+007
0.081008	8.166282e+006	8.166263e+006	1.633254e+007
0.081508	8.164290e+006	8.164271e+006	1.632856e+007
0.082008	8.162287e+006	8.162268e+006	1.632455e+007
0.082508	8.160271e+006	8.160252e+006	1.632052e+007
0.083008	8.158244e+006	8.158225e+006	1.631647e+007
0.083508	8.156205e+006	8.156186e+006	1.631239e+007
0.084008	8.154155e+006	8.154135e+006	1.630829e+007
0.084508	8.152092e+006	8.152072e+006	1.630416e+007
0.085009	8.150018e+006	8.149997e+006	1.630001e+007
0.085509	8.147932e+006	8.147911e+006	1.629584e+007
0.086009	8.145834e+006	8.145813e+006	1.629165e+007
0.086509	8.143724e+006	8.143703e+006	1.628743e+007
0.087009	8.141603e+006	8.141581e+006	1.628318e+007
0.087509	8.139470e+006	8.139448e+006	1.627892e+007
0.088009	8.137325e+006	8.137303e+006	1.627463e+007
0.088509	8.135168e+006	8.135146e+006	1.627031e+007
0.089009	8.133000e+006	8.132977e+006	1.626598e+007
0.089509	8.130820e+006	8.130797e+006	1.626162e+007
0.090009	8.128628e+006	8.128605e+006	1.625723e+007
0.090509	8.126424e+006	8.126401e+006	1.625283e+007
0.091009	8.124209e+006	8.124186e+006	1.624840e+007
0.091509	8.121982e+006	8.121959e+006	1.624394e+007
0.092009	8.119744e+006	8.119720e+006	1.623946e+007
0.092509	8.117494e+006	8.117470e+006	1.623496e+007
0.093009	8.115232e+006	8.115207e+006	1.623044e+007
0.093509	8.112958e+006	8.112934e+006	1.622589e+007
0.094009	8.110673e+006	8.110648e+006	1.622132e+007
0.094509	8.108376e+006	8.108351e+006	1.621673e+007
0.095010	8.106068e+006	8.106043e+006	1.621211e+007
0.095510	8.103748e+006	8.103722e+006	1.620747e+007
0.096010	8.101416e+006	8.101391e+006	1.620281e+007
0.096510	8.099073e+006	8.099047e+006	1.619812e+007
0.097010	8.096718e+006	8.096692e+006	1.619341e+007
0.097510	8.094352e+006	8.094325e+006	1.618868e+007
0.098010	8.091974e+006	8.091947e+006	1.618392e+007
0.098510	8.089585e+006	8.089557e+006	1.617914e+007
0.099010	8.087184e+006	8.087156e+006	1.617434e+007
0.099510	8.084771e+006	8.084743e+006	1.616951e+007
0.100010	8.082347e+006	8.082319e+006	1.616467e+007
0.100510	8.079911e+006	8.079883e+006	1.615979e+007
0.101010	8.077464e+006	8.077435e+006	1.615490e+007
0.101510	8.075005e+006	8.074976e+006	1.614998e+007
0.102010	8.072535e+006	8.072506e+006	1.614504e+007
0.102510	8.070053e+006	8.070024e+006	1.614008e+007
0.103010	8.067560e+006	8.067531e+006	1.613509e+007
0.103510	8.065056e+006	8.065026e+006	1.613008e+007
0.104010	8.062540e+006	8.062509e+006	1.612505e+007
0.104510	8.060012e+006	8.059982e+006	1.611999e+007
0.105011	8.057473e+006	8.057442e+006	1.611492e+007
0.105511	8.054923e+006	8.054892e+006	1.610981e+007
0.106011	8.052361e+006	8.052330e+006	1.610469e+007
0.106511	8.049788e+006	8.049756e+006	1.609954e+007
0.107011	8.047203e+006	8.047171e+006	1.609437e+007
0.107511	8.044607e+006	8.044575e+006	1.608918e+007
0.108011	8.042000e+006	8.041967e+006	1.608397e+007
0.108511	8.039381e+006	8.039348e+006	1.607873e+007
0.109011	8.036751e+006	8.036718e+006	1.607347e+007
0.109511	8.034109e+006	8.034076e+006	1.606819e+007
0.110011	8.031457e+006	8.031423e+006	1.606288e+007
0.110511	8.028792e+006	8.028758e+006	1.605755e+007
0.111011	8.026117e+006	8.026083e+006	1.605220e+007
0.111511	8.023430e+006	8.023396e+006	1.604683e+007
0.112011	8.020732e+006	8.020697e+006	1.604143e+007
0.112511	8.018023e+006	8.017987e+006	1.603601e+007
0.113011	8.015302e+006	8.015266e+006	1.603057e+007
0.113511	8.012570e+006	8.012534e+006	1.602510e+007
0.114011	8.009827e+006	8.009791e+006	1.601962e+007
0.114511	8.007073e+006	8.007036e+006	1.601411e+007
0.115012	8.004307e+006	8.004270e+006	1.600858e+007
0.115512	8.001530e+006	8.001493e+006	1.600302e+007
0.116012	7.998742e+006	7.998704e+006	1.599745e+007
0.116512	7.995943e+006	7.995905e+006	1.599185e+007
0.117012	7.993132e+006	7.993094e+006	1.598623e+007
0.117512	7.990310e+006	7.990272e+006	1.598058e+007
0.118012	7.987477e+006	7.987439e+006	1.597492e+007
0.118512	7.984633e+006	7.984594e+006	1.596923e+007
0.119012	7.981778e+006	7.981739e+006	1.596352e+007
0.119512	7.978912e+006	7.978872e+006	1.595778e+007
0.120012	7.976034e+006	7.975994e+006	1.595203e+007
0.120512	7.973146e+006	7.973106e+006	1.594625e+007
0.121012	7.970246e+006	7.970206e+006	1.594045e+007
0.121512	7.967335e+006	7.967294e+006	1.593463e+007
0.122012	7.964413e+006	7.964372e+006	1.592879e+007
0.122512	7.961480e+006	7.961439e+006	1.592292e+007
0.123012	7.958536e+006	7.958495e+006	1.591703e+007
0.123512	7.955581e+006	7.955539e+006	1.591112e+007
0.124012	7.952615e+006	7.952573e+006	1.590519e+007
0.124512	7.949638e+006	7.949595e+006	1.589923e+007
0.125013	7.946650e+006	7.946607e+006	1.589326e+007
0.125513	7.943651e+006	7.943607e+006	1.588726e+007
0.126013	7.940640e+006	7.940597e+006	1.588124e+007
0.126513	7.937619e+006	7.937575e+006	1.587519e+007
0.127013	7.934587e+006	7.934543e+006	1.586913e+007
0.127513	7.931544e+006	7.931499e+006	1.586304e+007
0.128013	7.928490e+006	7.928445e+006	1.585693e+007
0.128513	7.925425e+006	7.925379e+006	1.585080e+007
0.129013	7.922349e+006	7.922303e+006	1.584465e+007
0.129513	7.919262e+006	7.919216e+006	1.583848e+007
0.130013	7.916164e+006	7.916118e+006	1.583228e+007
0.130513	7.913056e+006	7.913009e+006	1.582606e+007
0.131013	7.909936e+006	7.909889e+006	1.581982e+007
0.131513	7.906806e+006	7.906758e+006	1.581356e+007
0.132013	7.903664e+006	7.903616e+006	1.580728e+007
0.132513	7.900512e+006	7.900464e+006	1.580098e+007
0.133013	7.897349e+006	7.897301e+006	1.579465e+007
0.133513	7.894175e+006	7.894127e+006	1.578830e+007
0.134013	7.890991e+006	7.890942e+006	1.578193e+007
0.134513	7.887795e+006	7.887746e+006	1.577554e+007
0.135014	7.884589e+006	7.884539e+006	1.576913e+007
0.135514	7.881372e+006	7.881322e+006	1.576269e+007
0.136014	7.878145e+006	7.878094e+006	1.575624e+007
0.136514	7.874906e+006	7.874855e+006	1.574976e+007
0.137014	7.871657e+006	7.871605e+006	1.574326e+007
0.137514	7.868397e+006	7.868345e+006	1.573674e+007
0.138014	7.865126e+006	7.865074e+006	1.573020e+007
0.138514	7.861845e+006	7.861792e+006	1.572364e+007
0.139014	7.858553e+006	7.858500e+006	1.571705e+007
0.139514	7.855250e+006	7.855197e+006	1.571045e+007
0.140014	7.851937e+006	7.851883e+006	1.570382e+007
0.140514	7.848613e+006	7.848559e+006	1.569717e+007
0.141014	7.845278e+006	7.845224e+006	1.569050e+007
0.141514	7.841933e+006	7.841878e+006	1.568381e+007
0.142014	7.838577e+006	7.838522e+006	1.567710e+007
0.142514	7.835210e+006	7.835155e+006	1.567036e+007
0.143014	7.831833e+006	7.831777e+006	1.566361e+007
0.143514	7.828445e+006	7.828389e+006	1.565683e+007
0.144014	7.825047e+006	7.824990e+006	1.565004e+007
0.144514	7.821638e+006	7.821581e+006	1.564322e+007
0.145015	7.818219e+006	7.818162e+006	1.563638e+007
0.145515	7.814789e+006	7.814731e+006	1.562952e+007
0.146015	7.811348e+006	7.811290e+006	1.562264e+007
0.146515	7.807897e+006	7.807839e+006	1.561574e+007
0.147015	7.804436e+006	7.804377e+006	1.560881e+007
0.147515	7.800964e+006	7.800905e+006	1.560187e+007
0.148015	7.797482e+006	7.797422e+006	1.559490e+007
0.148515	7.793989e+006	7.793929e+006	1.558792e+007
0.149015	7.790486e+006	7.790426e+006	1.558091e+007
0.149515	7.786972e+006	7.786912e+006	1.557388e+007
0.150015	7.783448e+006	7.783387e+006	1.556684e+007
0.150515	7.779914e+006	7.779852e+006	1.555977e+007
0.151015	7.776369e+006	7.776307e+006	1.555268e+007
0.151515	7.772814e+006	7.772752e+006	1.554557e+007
0.152015	7.769248e+006	7.769186e+006	1.553843e+007
0.152515	7.765672e+006	7.765609e+006	1.553128e+007
0.153015	7.762086e+006	7.762023e+006	1.552411e+007
0.153515	7.758489e+006	7.758426e+006	1.551692e+007
0.154015	7.754883e+006	7.754819e+006	1.550970e+007
0.154515	7.751265e+006	7.751201e+006	1.550247e+007
0.155016	7.747638e+006	7.747573e+006	1.549521e+007
0.155516	7.744000e+006	7.743935e+006	1.548794e+007
0.156016	7.740352e+006	7.740287e+006	1.548064e+007
0.156516	7.736694e+006	7.736628e+006	1.547332e+007
0.157016	7.733026e+006	7.732960e+006	1.546599e+007
0.157516	7.729347e+006	7.729281e+006	1.545863e+007
0.158016	7.725658e+006	7.725591e+006	1.545125e+007
0.158516	7.721960e+006	7.721892e+006	1.544385e+007
0.159016	7.718250e+006	7.718183e+006	1.543643e+007
0.159516	7.714531e+006	7.714463e+006	1.542899e+007
0.160016	7.710802e+006	7.710733e+006	1.542153e+007
0.160516	7.707062e+006	7.706993e+006	1.541406e+007
0.161016	7.703312e+006	7.703243e+006	1.540656e+007
0.161516	7.699553e+006	7.699483e+006	1.539904e+007
0.162016	7.695783e+006	7.695713e+006	1.539150e+007
0.162516	7.692003e+006	7.691932e+006	1.538394e+007
0.163016	7.688213e+006	7.688142e+006	1.537635e+007
0.163516	7.684413e+006	7.684342e+006	1.536875e+007
0.164016	7.680603e+006	7.680531e+006	1.536113e+007
0.164516	7.676783e+006	7.676711e+006	1.535349e+007
0.165017	7.672953e+006	7.672880e+006	1.534583e+007
0.165517	7.669113e+006	7.669040e+006	1.533815e+007
0.166017	7.665263e+006	7.665189e+006	1.533045e+007
0.166517	7.661403e+006	7.661329e+006	1.532273e+007
0.167017	7.657533e+006	7.657459e+006	1.531499e+007
0.167517	7.653653e+006	7.653579e+006	1.530723e+007
0.168017	7.649764e+006	7.649688e+006	1.529945e+007
0.168517	7.645864e+006	7.645788e+006	1.529165e+007
0.169017	7.641954e+006	7.641879e+006	1.528383e+007
0.169517	7.638035e+006	7.637959e+006	1.527599e+007
0.170017	7.634106e+006	7.634029e+006	1.526813e+007
0.170517	7.630167e+006	7.630090e+006	1.526026e+007
0.171017	7.626218e+006	7.626140e+006	1.525236e+007
0.171517	7.622259e+006	7.622181e+006	1.524444e+007
0.172017	7.618291e+006	7.618212e+006	1.523650e+007
0.172517	7.614312e+006	7.614234e+006	1.522855e+007
0.173017	7.610324e+006	7.610245e+006	1.522057e+007
0.173517	7.606327e+006	7.606247e+006	1.521257e+007
0.174017	7.602319e+006	7.602239e+006	1.520456e+007
0.174517	7.598302e+006	7.598221e+006	1.519652e+007
0.175018	7.594275e+006	7.594194e+006	1.518847e+007
0.175518	7.590238e+006	7.590157e+006	1.518040e+007
0.176018	7.586192e+006	7.586110e+006	1.517230e+007
0.176518	7.582136e+006	7.582054e+006	1.516419e+007
0.177018	7.578070e+006	7.577988e+006	1.515606e+007
0.177518	7.573995e+006	7.573912e+006	1.514791e+007
0.178018	7.569910e+006	7.569827e+006	1.513974e+007
0.178518	7.565816e+006	7.565732e+006	1.513155e+007
0.179018	7.561712e+006	7.561627e+006	1.512334e+007
0.179518	7.557598e+006	7.557513e+006	1.511511e+007
0.180018	7.553475e+006	7.553390e+006	1.510686e+007
0.180518	7.549342e+006	7.549257e+006	1.509860e+007
0.181018	7.545200e+006	7.545114e+006	1.509031e+007
0.181518	7.541048e+006	7.540962e+006	1.508201e+007
0.182018	7.536887e+006	7.536800e+006	1.507369e+007
0.182518	7.532716e+006	7.532629e+006	1.506535e+007
0.183018	7.528536e+006	7.528448e+006	1.505698e+007
0.183518	7.524346e+006	7.524258e+006	1.504860e+007
0.184018	7.520147e+006	7.520059e+006	1.504021e+007
0.184518	7.515939e+006	7.515850e+006	1.503179e+007
0.185019	7.511721e+006	7.511632e+006	1.502335e+007
0.185519	7.507494e+006	7.507404e+006	1.501490e+007
0.186019	7.503257e+006	7.503167e+006	1.500642e+007
0.186519	7.499011e+006	7.498920e+006	1.499793e+007
0.187019	7.494756e+006	7.494665e+006	1.498942e+007
0.187519	7.490491e+006	7.490399e+006	1.498089e+007
0.188019	7.486217e+006	7.486125e+006	1.497234e+007
0.188519	7.481934e+006	7.481841e+006	1.496378e+007
0.189019	7.477641e+006	7.477548e+006	1.495519e+007
0.189519	7.473340e+006	7.473246e+006	1.494659e+007
0.190019	7.469028e+006	7.468935e+006	1.493796e+007
0.190519	7.464708e+006	7.464614e+006	1.492932e+007
0.191019	7.460379e+006	7.460284e+006	1.492066e+007
0.191519	7.456040e+006	7.455945e+006	1.491199e+007
